# WindVxi,RotSpeed,BldPitch1
# (m/sec),(rpm),(deg)
3,6.972,0
4,7.183,0
5,7.506,0
6,7.942,0
7,8.469,0
8,9.156,0
9,10.296,0
10,11.431,0
11,11.89,0
12,12.1,3.823
13,12.1,6.602
14,12.1,8.668
15,12.1,10.45
16,12.1,12.055
17,12.1,13.536
18,12.1,14.92
19,12.1,16.226
20,12.1,17.473
21,12.1,18.699
22,12.1,19.941
23,12.1,21.177
24,12.1,22.347
25,12.1,23.469